   32.2598
   32.2598
   32.2598
   32.2598
   32.2598
   32.2598
   32.2598
   32.2598
   37.2598
   34.2598
   32.2598
   31.2598
   29.2598
   30.2598
   29.2598
   26.2598
   25.2598
   24.2598
   27.2598
   30.2598
   26.2598
   25.2598
   23.2598
   25.2598
   30.2598
   34.2598
   30.2598
   23.2598
   20.2598
   14.2598
   16.2598
   12.2598
   11.2598
    9.2598
    6.2598
    6.2598
    6.2598
    8.2598
   10.2598
    8.2598
    6.2598
    3.2598
    3.2598
    3.2598
    3.2598
    4.2598
    2.2598
    0.2598
    4.2598
    6.2598
    6.2598
    5.2598
    4.2598
    0.2598
    3.2598
    1.2598
    5.2598
    3.2598
    1.2598
   -1.7402
   -2.7402
   -5.7402
  -10.7402
  -15.7402
  -15.7402
  -19.7402
  -29.7402
  -35.7402
  -35.7402
  -23.7402
   -4.7402
   17.2598
   47.2598
   85.2598
  136.2598
  185.2598
  217.2598
  229.2598
  214.2598
  165.2598
   95.2598
   28.2598
  -11.7402
  -25.7402
  -23.7402
  -12.7402
   -4.7402
   -3.7402
   -5.7402
   -7.7402
   -4.7402
   -3.7402
   -1.7402
   -0.7402
   -2.7402
   -5.7402
   -6.7402
   -3.7402
   -7.7402
   -5.7402
   -4.7402
   -5.7402
   -4.7402
   -3.7402
   -4.7402
   -4.7402
   -7.7402
   -9.7402
   -5.7402
   -3.7402
    0.2598
   -2.7402
   -2.7402
   -4.7402
   -6.7402
   -5.7402
   -6.7402
   -7.7402
   -9.7402
   -9.7402
   -6.7402
   -4.7402
   -4.7402
   -4.7402
   -6.7402
   -8.7402
   -3.7402
   -3.7402
   -4.7402
   -4.7402
   -5.7402
   -5.7402
   -6.7402
   -4.7402
   -6.7402
   -8.7402
   -9.7402
   -8.7402
   -7.7402
   -4.7402
   -2.7402
   -5.7402
   -4.7402
   -7.7402
   -4.7402
   -5.7402
   -5.7402
   -7.7402
   -7.7402
   -9.7402
   -6.7402
   -6.7402
   -5.7402
   -4.7402
   -8.7402
   -8.7402
   -7.7402
   -5.7402
   -5.7402
   -5.7402
   -8.7402
   -9.7402
   -9.7402
   -7.7402
   -7.7402
   -5.7402
   -8.7402
  -10.7402
  -10.7402
  -10.7402
  -11.7402
  -10.7402
  -12.7402
  -15.7402
  -12.7402
  -10.7402
   -9.7402
  -10.7402
  -13.7402
  -13.7402
  -11.7402
  -11.7402
  -10.7402
  -10.7402
  -11.7402
  -12.7402
   -9.7402
   -4.7402
   -3.7402
   -3.7402
   -5.7402
   -6.7402
   -1.7402
    1.2598
    1.2598
    3.2598
    2.2598
    3.2598
    4.2598
    6.2598
   10.2598
   11.2598
   11.2598
    8.2598
   10.2598
   12.2598
   15.2598
   12.2598
   12.2598
   10.2598
   10.2598
   13.2598
   11.2598
   10.2598
   12.2598
   10.2598
   11.2598
   11.2598
    8.2598
    9.2598
    9.2598
    8.2598
    7.2598
    8.2598
    9.2598
    6.2598
    5.2598
    3.2598
    6.2598
    7.2598
    9.2598
    5.2598
    5.2598
    4.2598
    6.2598
    6.2598
    8.2598
    7.2598
    4.2598
    3.2598
    5.2598
    6.2598
    4.2598
    5.2598
    1.2598
    1.2598
    0.2598
    2.2598
    1.2598
   -0.7402
   -0.7402
    0.2598
    2.2598
    4.2598
    4.2598
    3.2598
    2.2598
   -0.7402
    3.2598
    2.2598
    1.2598
    0.2598
   -0.7402
   -3.7402
   -0.7402
    1.2598
    3.2598
   -0.7402
   -3.7402
   -4.7402
   -1.7402
    1.2598
    0.2598
   -0.7402
   -2.7402
   -4.7402
   -3.7402
   -1.7402
   -0.7402
    0.2598
    0.2598
   -0.7402
    1.2598
    0.2598
    3.2598
    1.2598
    1.2598
    0.2598
    0.2598
    3.2598
    5.2598
    2.2598
    0.2598
   -1.7402
    0.2598
    2.2598
    3.2598
    5.2598
    7.2598
    6.2598
    6.2598
    7.2598
   11.2598
   11.2598
   10.2598
   16.2598
   17.2598
   20.2598
   21.2598
   20.2598
   18.2598
   15.2598
   17.2598
   16.2598
   16.2598
   16.2598
   15.2598
   14.2598
   13.2598
   14.2598
   17.2598
   19.2598
   20.2598
   12.2598
    4.2598
    4.2598
    1.2598
   -0.7402
   -4.7402
   -4.7402
   -3.7402
   -1.7402
   -2.7402
   -1.7402
   -3.7402
   -6.7402
   -7.7402
   -6.7402
   -6.7402
   -8.7402
   -7.7402
   -9.7402
   -4.7402
   -5.7402
   -4.7402
   -2.7402
   -7.7402
   -9.7402
   -6.7402
   -4.7402
   -3.7402
   -4.7402
   -8.7402
  -11.7402
  -10.7402
  -14.7402
  -23.7402
  -27.7402
  -33.7402
  -40.7402
  -45.7402
  -39.7402
  -21.7402
    1.2598
   29.2598
   58.2598
  108.2598
  159.2598
  205.2598
  236.2598
  249.2598
  242.2598
  212.2598
  159.2598
   94.2598
   39.2598
    7.2598
  -16.7402
  -28.7402
  -33.7402
  -29.7402
  -23.7402
  -16.7402
  -16.7402
  -15.7402
  -16.7402
  -14.7402
  -14.7402
  -14.7402
  -17.7402
  -15.7402
  -15.7402
  -15.7402
  -13.7402
  -17.7402
  -20.7402
  -20.7402
  -18.7402
  -17.7402
  -16.7402
  -19.7402
  -17.7402
  -15.7402
  -13.7402
  -16.7402
  -16.7402
  -19.7402
  -20.7402
  -20.7402
  -16.7402
  -16.7402
  -17.7402
  -19.7402
  -21.7402
  -18.7402
  -20.7402
  -19.7402
  -20.7402
  -21.7402
  -20.7402
  -18.7402
  -18.7402
  -17.7402
  -16.7402
  -19.7402
  -20.7402
  -16.7402
  -16.7402
  -15.7402
  -15.7402
  -20.7402
  -19.7402
  -17.7402
  -16.7402
  -13.7402
  -16.7402
  -17.7402
  -20.7402
  -18.7402
  -16.7402
  -16.7402
  -15.7402
  -19.7402
  -21.7402
  -21.7402
  -18.7402
  -17.7402
  -19.7402
  -21.7402
  -22.7402
  -22.7402
  -20.7402
  -21.7402
  -23.7402
  -22.7402
  -25.7402
  -24.7402
  -24.7402
  -22.7402
  -24.7402
  -28.7402
  -29.7402
  -28.7402
  -25.7402
  -27.7402
  -28.7402
  -29.7402
  -32.7402
  -30.7402
  -29.7402
  -28.7402
  -29.7402
  -32.7402
  -33.7402
  -30.7402
  -28.7402
  -27.7402
  -26.7402
  -25.7402
  -26.7402
  -20.7402
  -17.7402
  -12.7402
  -11.7402
  -10.7402
  -11.7402
   -6.7402
   -3.7402
   -1.7402
   -2.7402
   -4.7402
   -4.7402
   -2.7402
   -0.7402
    1.2598
    1.2598
   -2.7402
   -2.7402
   -1.7402
    0.2598
    0.2598
    2.2598
   -2.7402
   -4.7402
    0.2598
   -0.7402
    1.2598
    1.2598
   -2.7402
   -3.7402
   -0.7402
    0.2598
   -1.7402
    0.2598
   -1.7402
   -1.7402
   -0.7402
    2.2598
    3.2598
    0.2598
   -0.7402
   -2.7402
   -1.7402
    1.2598
   -1.7402
   -1.7402
   -1.7402
   -4.7402
   -1.7402
   -2.7402
   -1.7402
   -3.7402
   -5.7402
   -6.7402
   -5.7402
   -5.7402
   -4.7402
   -3.7402
   -7.7402
   -8.7402
   -7.7402
   -5.7402
   -4.7402
   -4.7402
   -7.7402
   -7.7402
   -7.7402
   -2.7402
   -4.7402
   -5.7402
   -6.7402
   -9.7402
   -5.7402
   -4.7402
   -4.7402
   -5.7402
   -9.7402
  -10.7402
   -9.7402
   -8.7402
   -6.7402
   -7.7402
   -7.7402
   -7.7402
   -7.7402
   -4.7402
   -4.7402
   -5.7402
   -7.7402
   -8.7402
   -8.7402
   -6.7402
   -4.7402
   -7.7402
   -7.7402
   -9.7402
   -8.7402
   -6.7402
   -4.7402
   -6.7402
   -6.7402
   -6.7402
   -4.7402
   -5.7402
   -4.7402
   -5.7402
   -7.7402
   -7.7402
   -6.7402
   -4.7402
   -1.7402
    2.2598
    1.2598
    2.2598
    4.2598
    6.2598
    8.2598
    8.2598
    8.2598
   10.2598
   11.2598
   13.2598
   16.2598
   18.2598
   13.2598
   12.2598
   13.2598
   12.2598
   14.2598
   12.2598
   11.2598
    6.2598
    6.2598
    8.2598
   11.2598
   16.2598
   17.2598
   15.2598
    8.2598
    7.2598
    5.2598
    4.2598
    0.2598
   -2.7402
   -6.7402
   -4.7402
   -5.7402
   -5.7402
   -9.7402
  -12.7402
  -10.7402
   -7.7402
   -8.7402
   -9.7402
  -11.7402
  -13.7402
  -14.7402
  -12.7402
  -11.7402
  -11.7402
  -14.7402
  -15.7402
  -14.7402
  -13.7402
   -9.7402
  -12.7402
  -16.7402
  -19.7402
  -20.7402
  -25.7402
  -31.7402
  -36.7402
  -42.7402
  -49.7402
  -52.7402
  -43.7402
  -19.7402
   11.2598
   43.2598
   85.2598
  143.2598
  199.2598
  238.2598
  253.2598
  231.2598
  165.2598
   71.2598
   -2.7402
  -38.7402
  -39.7402
  -27.7402
  -21.7402
  -17.7402
  -16.7402
  -17.7402
  -16.7402
  -17.7402
  -19.7402
  -17.7402
  -19.7402
  -16.7402
  -17.7402
  -17.7402
  -20.7402
  -19.7402
  -18.7402
  -18.7402
  -21.7402
  -19.7402
  -22.7402
  -21.7402
  -19.7402
  -19.7402
  -22.7402
  -22.7402
  -25.7402
  -22.7402
  -20.7402
  -20.7402
  -19.7402
  -23.7402
  -24.7402
  -22.7402
  -21.7402
  -20.7402
  -20.7402
  -23.7402
  -22.7402
  -18.7402
  -17.7402
  -18.7402
  -18.7402
  -17.7402
  -21.7402
  -19.7402
  -16.7402
  -18.7402
  -18.7402
  -21.7402
  -23.7402
  -23.7402
  -21.7402
  -21.7402
  -20.7402
  -23.7402
  -23.7402
  -22.7402
  -21.7402
  -18.7402
  -18.7402
  -20.7402
  -23.7402
  -20.7402
  -19.7402
  -17.7402
  -18.7402
  -18.7402
  -19.7402
  -15.7402
  -18.7402
  -16.7402
  -16.7402
  -18.7402
  -21.7402
  -19.7402
  -19.7402
  -20.7402
  -21.7402
  -22.7402
  -22.7402
  -23.7402
  -21.7402
  -21.7402
  -20.7402
  -25.7402
  -24.7402
  -25.7402
  -22.7402
  -22.7402
  -22.7402
  -22.7402
  -23.7402
  -23.7402
  -21.7402
  -17.7402
  -17.7402
  -16.7402
  -13.7402
  -10.7402
   -6.7402
   -5.7402
   -4.7402
   -5.7402
   -5.7402
   -3.7402
   -2.7402
    0.2598
    0.2598
   -1.7402
   -0.7402
    0.2598
    1.2598
    1.2598
    1.2598
   -0.7402
   -0.7402
   -0.7402
   -1.7402
    1.2598
    0.2598
   -1.7402
   -2.7402
   -3.7402
   -0.7402
    0.2598
    0.2598
   -2.7402
   -3.7402
    0.2598
   -0.7402
    2.2598
   -0.7402
   -3.7402
   -4.7402
   -2.7402
   -2.7402
   -2.7402
   -3.7402
   -8.7402
   -8.7402
   -6.7402
   -5.7402
   -4.7402
   -5.7402
   -6.7402
  -10.7402
   -8.7402
   -8.7402
   -9.7402
  -10.7402
   -9.7402
  -11.7402
   -9.7402
   -8.7402
   -6.7402
   -9.7402
   -8.7402
  -11.7402
  -11.7402
   -8.7402
   -9.7402
   -8.7402
  -12.7402
  -14.7402
  -12.7402
  -10.7402
  -11.7402
  -10.7402
  -11.7402
  -14.7402
  -12.7402
  -11.7402
   -8.7402
   -8.7402
   -8.7402
  -12.7402
  -11.7402
   -7.7402
   -7.7402
   -6.7402
   -9.7402
  -11.7402
  -10.7402
   -9.7402
   -9.7402
   -9.7402
  -13.7402
  -15.7402
   -9.7402
  -10.7402
   -9.7402
  -10.7402
  -10.7402
  -12.7402
  -10.7402
   -7.7402
   -9.7402
   -7.7402
   -7.7402
   -7.7402
   -6.7402
   -0.7402
    0.2598
    0.2598
   -0.7402
    0.2598
    3.2598
    4.2598
    6.2598
    5.2598
    5.2598
    6.2598
    8.2598
   10.2598
   12.2598
    9.2598
    8.2598
    6.2598
    5.2598
    8.2598
    7.2598
    6.2598
    5.2598
    6.2598
    5.2598
    6.2598
    8.2598
   10.2598
   13.2598
    9.2598
    5.2598
   -0.7402
   -0.7402
   -7.7402
  -10.7402
  -14.7402
  -15.7402
  -14.7402
  -12.7402
  -13.7402
  -15.7402
  -16.7402
  -17.7402
  -15.7402
  -15.7402
  -15.7402
  -17.7402
  -19.7402
  -18.7402
  -13.7402
  -13.7402
  -16.7402
  -17.7402
  -21.7402
  -19.7402
  -18.7402
  -16.7402
  -19.7402
  -23.7402
  -30.7402
  -33.7402
  -39.7402
  -40.7402
  -43.7402
  -46.7402
  -58.7402
  -67.7402
  -64.7402
  -53.7402
  -37.7402
  -15.7402
    7.2598
   38.2598
   79.2598
  135.2598
  188.2598
  223.2598
  233.2598
  215.2598
  156.2598
   74.2598
    0.2598
  -38.7402
  -42.7402
  -33.7402
  -20.7402
  -16.7402
  -16.7402
  -18.7402
  -20.7402
  -19.7402
  -15.7402
  -16.7402
  -17.7402
  -19.7402
  -20.7402
  -19.7402
  -18.7402
  -16.7402
  -17.7402
  -20.7402
  -21.7402
  -20.7402
  -17.7402
  -19.7402
  -20.7402
  -19.7402
  -19.7402
  -20.7402
  -16.7402
  -15.7402
  -16.7402
  -17.7402
  -18.7402
  -18.7402
  -18.7402
  -17.7402
  -17.7402
  -19.7402
  -19.7402
  -18.7402
  -17.7402
  -15.7402
  -13.7402
  -15.7402
  -17.7402
  -16.7402
  -15.7402
  -13.7402
  -15.7402
  -17.7402
  -17.7402
  -15.7402
  -13.7402
  -13.7402
  -15.7402
  -17.7402
  -16.7402
  -16.7402
  -11.7402
  -13.7402
  -15.7402
  -17.7402
  -14.7402
  -15.7402
  -13.7402
  -14.7402
  -16.7402
  -14.7402
  -13.7402
  -13.7402
  -13.7402
  -13.7402
  -14.7402
  -16.7402
  -16.7402
  -11.7402
  -12.7402
  -13.7402
  -15.7402
  -16.7402
  -16.7402
  -13.7402
  -11.7402
  -15.7402
  -14.7402
  -16.7402
  -13.7402
  -13.7402
  -11.7402
  -12.7402
  -15.7402
  -17.7402
  -15.7402
  -15.7402
  -12.7402
  -11.7402
  -12.7402
  -13.7402
   -8.7402
   -5.7402
   -2.7402
   -1.7402
   -2.7402
   -3.7402
   -1.7402
    2.2598
    4.2598
    1.2598
    2.2598
    4.2598
    4.2598
    5.2598
    7.2598
    5.2598
    3.2598
    2.2598
    2.2598
    3.2598
    5.2598
    3.2598
    2.2598
   -0.7402
    2.2598
    4.2598
    5.2598
    6.2598
    2.2598
    0.2598
    1.2598
    2.2598
    2.2598
    4.2598
    1.2598
    0.2598
    1.2598
    2.2598
    1.2598
    0.2598
   -1.7402
   -0.7402
   -1.7402
    2.2598
    1.2598
   -0.7402
   -4.7402
   -6.7402
   -4.7402
   -2.7402
   -2.7402
   -1.7402
   -3.7402
   -5.7402
   -4.7402
   -1.7402
   -2.7402
   -2.7402
   -4.7402
   -7.7402
   -6.7402
   -5.7402
   -4.7402
   -5.7402
   -7.7402
   -8.7402
   -7.7402
   -6.7402
   -5.7402
   -5.7402
   -4.7402
   -5.7402
   -6.7402
   -5.7402
   -2.7402
   -6.7402
   -6.7402
   -8.7402
  -11.7402
  -10.7402
   -7.7402
   -7.7402
   -8.7402
   -8.7402
   -8.7402
   -6.7402
   -6.7402
   -7.7402
   -7.7402
  -14.7402
  -10.7402
  -10.7402
   -7.7402
   -7.7402
   -8.7402
   -9.7402
   -7.7402
   -4.7402
   -4.7402
   -5.7402
   -5.7402
   -6.7402
   -4.7402
   -2.7402
    3.2598
    3.2598
    1.2598
    0.2598
    4.2598
    5.2598
    6.2598
    5.2598
    6.2598
    7.2598
    8.2598
   11.2598
   15.2598
   12.2598
   13.2598
   10.2598
   10.2598
   12.2598
   14.2598
   10.2598
    8.2598
    9.2598
   10.2598
    7.2598
    8.2598
    5.2598
   10.2598
   11.2598
   12.2598
    8.2598
    5.2598
    1.2598
   -1.7402
   -3.7402
   -5.7402
   -7.7402
   -4.7402
   -5.7402
   -7.7402
  -10.7402
   -8.7402
   -6.7402
   -5.7402
   -7.7402
  -10.7402
  -11.7402
  -13.7402
  -12.7402
  -11.7402
  -11.7402
  -14.7402
  -13.7402
  -13.7402
  -11.7402
  -12.7402
  -10.7402
  -12.7402
  -14.7402
  -11.7402
  -10.7402
   -8.7402
   -9.7402
  -12.7402
  -15.7402
  -17.7402
  -24.7402
  -27.7402
  -35.7402
  -41.7402
  -51.7402
  -49.7402
  -33.7402
   -9.7402
   17.2598
   50.2598
   98.2598
  156.2598
  202.2598
  225.2598
  217.2598
  168.2598
   90.2598
   21.2598
  -22.7402
  -38.7402
  -34.7402
  -28.7402
  -20.7402
  -18.7402
  -16.7402
  -16.7402
  -18.7402
  -19.7402
  -23.7402
  -23.7402
  -19.7402
  -17.7402
  -19.7402
  -19.7402
  -21.7402
  -19.7402
  -15.7402
  -16.7402
  -17.7402
  -17.7402
  -17.7402
  -17.7402
  -15.7402
  -16.7402
  -16.7402
  -18.7402
  -23.7402
  -20.7402
  -18.7402
  -17.7402
  -18.7402
  -19.7402
  -23.7402
  -21.7402
  -19.7402
  -19.7402
  -19.7402
  -20.7402
  -21.7402
  -19.7402
  -22.7402
  -19.7402
  -20.7402
  -20.7402
  -22.7402
  -21.7402
  -19.7402
  -17.7402
  -17.7402
  -17.7402
  -18.7402
  -17.7402
  -17.7402
  -19.7402
  -19.7402
  -22.7402
  -25.7402
  -21.7402
  -19.7402
  -17.7402
  -16.7402
  -21.7402
  -19.7402
  -19.7402
  -18.7402
  -17.7402
  -17.7402
  -19.7402
  -22.7402
  -21.7402
  -18.7402
  -17.7402
  -18.7402
  -19.7402
  -23.7402
  -23.7402
  -23.7402
  -22.7402
  -23.7402
  -28.7402
  -27.7402
  -28.7402
  -25.7402
  -27.7402
  -32.7402
  -29.7402
  -30.7402
  -26.7402
  -25.7402
  -23.7402
  -24.7402
  -27.7402
  -28.7402
  -27.7402
  -24.7402
  -22.7402
  -20.7402
  -23.7402
  -22.7402
  -19.7402
  -14.7402
  -12.7402
  -11.7402
  -11.7402
  -11.7402
   -7.7402
   -4.7402
   -1.7402
    0.2598
    0.2598
   -2.7402
   -0.7402
   -0.7402
    0.2598
   -0.7402
   -1.7402
   -2.7402
   -1.7402
    0.2598
    0.2598
    2.2598
   -0.7402
   -2.7402
   -0.7402
   -1.7402
    2.2598
    1.2598
    0.2598
    1.2598
    4.2598
    5.2598
    3.2598
    2.2598
    0.2598
   -3.7402
    0.2598
    1.2598
    1.2598
   -1.7402
   -3.7402
   -5.7402
   -3.7402
   -1.7402
   -2.7402
   -5.7402
   -4.7402
   -6.7402
   -3.7402
   -3.7402
   -2.7402
   -1.7402
   -5.7402
   -5.7402
   -7.7402
   -5.7402
   -3.7402
   -4.7402
   -1.7402
   -5.7402
   -4.7402
   -4.7402
   -4.7402
   -4.7402
   -5.7402
   -6.7402
   -4.7402
   -2.7402
   -1.7402
   -3.7402
   -5.7402
   -9.7402
   -7.7402
   -6.7402
   -5.7402
   -2.7402
   -3.7402
   -8.7402
   -4.7402
   -1.7402
   -1.7402
   -4.7402
   -4.7402
   -5.7402
   -5.7402
   -4.7402
   -4.7402
   -4.7402
   -6.7402
   -6.7402
   -6.7402
   -3.7402
   -3.7402
   -3.7402
   -7.7402
   -8.7402
   -6.7402
   -4.7402
   -2.7402
   -0.7402
    0.2598
    0.2598
    6.2598
    7.2598
   10.2598
    9.2598
    8.2598
    9.2598
   11.2598
   14.2598
   14.2598
   17.2598
   14.2598
   14.2598
   17.2598
   15.2598
   16.2598
   14.2598
   12.2598
   10.2598
   13.2598
   15.2598
   15.2598
   11.2598
   10.2598
   11.2598
   15.2598
   20.2598
   22.2598
   19.2598
   15.2598
    7.2598
    7.2598
    4.2598
    4.2598
   -0.7402
   -4.7402
   -6.7402
   -6.7402
   -7.7402
   -8.7402
   -8.7402
   -6.7402
   -9.7402
   -7.7402
   -6.7402
   -6.7402
   -7.7402
   -9.7402
  -12.7402
   -9.7402
  -12.7402
   -7.7402
   -6.7402
  -10.7402
  -14.7402
  -10.7402
   -7.7402
   -8.7402
   -8.7402
   -9.7402
  -14.7402
  -16.7402
  -17.7402
  -23.7402
  -29.7402
  -33.7402
  -40.7402
  -47.7402
  -46.7402
  -37.7402
  -19.7402
    2.2598
   29.2598
   69.2598
  124.2598
  180.2598
  221.2598
  238.2598
  220.2598
  165.2598
   87.2598
   18.2598
  -23.7402
  -38.7402
  -36.7402
  -28.7402
  -18.7402
  -16.7402
  -17.7402
  -17.7402
  -18.7402
  -16.7402
  -14.7402
  -15.7402
  -15.7402
  -18.7402
  -20.7402
  -20.7402
  -16.7402
  -16.7402
  -19.7402
  -19.7402
  -21.7402
  -20.7402
  -17.7402
  -17.7402
  -18.7402
  -21.7402
  -21.7402
  -21.7402
  -18.7402
  -16.7402
  -16.7402
  -20.7402
  -21.7402
  -19.7402
  -17.7402
  -17.7402
  -17.7402
  -19.7402
  -20.7402
  -20.7402
  -18.7402
  -16.7402
  -17.7402
  -20.7402
  -23.7402
  -21.7402
  -19.7402
  -20.7402
  -19.7402
  -21.7402
  -23.7402
  -23.7402
  -20.7402
  -17.7402
  -16.7402
  -18.7402
  -20.7402
  -20.7402
  -18.7402
  -16.7402
  -20.7402
  -22.7402
  -22.7402
  -21.7402
  -21.7402
  -19.7402
  -22.7402
  -21.7402
  -23.7402
  -20.7402
  -18.7402
  -19.7402
  -18.7402
  -18.7402
  -20.7402
  -18.7402
  -17.7402
  -17.7402
  -19.7402
  -20.7402
  -23.7402
  -23.7402
  -20.7402
  -20.7402
  -22.7402
  -24.7402
  -27.7402
  -26.7402
  -25.7402
  -24.7402
  -24.7402
  -28.7402
  -27.7402
  -27.7402
  -25.7402
  -25.7402
  -27.7402
  -26.7402
  -28.7402
  -24.7402
  -24.7402
  -21.7402
  -18.7402
  -18.7402
  -15.7402
  -11.7402
   -5.7402
   -4.7402
   -3.7402
   -4.7402
   -4.7402
   -0.7402
    2.2598
    4.2598
    3.2598
    3.2598
   -0.7402
    2.2598
    4.2598
    5.2598
    1.2598
    3.2598
    2.2598
    3.2598
    5.2598
    6.2598
    6.2598
    3.2598
    3.2598
    4.2598
    7.2598
    7.2598
    7.2598
    6.2598
    3.2598
    4.2598
    6.2598
    6.2598
    3.2598
    2.2598
    0.2598
    2.2598
    2.2598
    4.2598
    3.2598
    1.2598
    0.2598
   -0.7402
    2.2598
    1.2598
    0.2598
   -0.7402
   -3.7402
   -3.7402
   -1.7402
   -0.7402
   -1.7402
   -1.7402
   -3.7402
   -2.7402
   -0.7402
   -2.7402
   -1.7402
   -4.7402
   -4.7402
   -2.7402
   -0.7402
   -0.7402
   -0.7402
   -4.7402
   -5.7402
   -4.7402
   -2.7402
   -3.7402
   -3.7402
   -4.7402
   -5.7402
   -4.7402
   -3.7402
   -3.7402
   -2.7402
   -3.7402
   -4.7402
   -3.7402
   -1.7402
    0.2598
   -3.7402
   -1.7402
   -5.7402
   -4.7402
   -0.7402
   -2.7402
   -4.7402
   -4.7402
   -5.7402
   -4.7402
   -4.7402
   -2.7402
   -2.7402
   -4.7402
   -4.7402
   -3.7402
   -1.7402
   -1.7402
   -1.7402
   -4.7402
   -4.7402
   -2.7402
   -1.7402
    0.2598
    0.2598
    2.2598
   -1.7402
    1.2598
    6.2598
   10.2598
   10.2598
    9.2598
    8.2598
   10.2598
   14.2598
   15.2598
   16.2598
   17.2598
   17.2598
   18.2598
   21.2598
   20.2598
   20.2598
   16.2598
   14.2598
   13.2598
   15.2598
   18.2598
   13.2598
   13.2598
   11.2598
   14.2598
   19.2598
   21.2598
   17.2598
   10.2598
    6.2598
    4.2598
    1.2598
    0.2598
   -2.7402
   -4.7402
   -3.7402
   -2.7402
   -4.7402
   -4.7402
   -5.7402
   -6.7402
   -7.7402
   -6.7402
   -5.7402
   -2.7402
   -3.7402
   -5.7402
   -7.7402
   -7.7402
   -7.7402
   -5.7402
   -6.7402
   -7.7402
   -9.7402
   -6.7402
   -6.7402
   -6.7402
   -6.7402
   -7.7402
   -9.7402
  -11.7402
  -12.7402
  -19.7402
  -27.7402
  -34.7402
  -37.7402
  -42.7402
  -45.7402
  -39.7402
  -21.7402
    5.2598
   34.2598
   74.2598
  121.2598
  177.2598
  223.2598
  250.2598
  245.2598
  216.2598
  150.2598
   65.2598
    2.2598
  -27.7402
  -32.7402
  -23.7402
  -14.7402
  -10.7402
  -10.7402
  -12.7402
  -14.7402
  -14.7402
  -13.7402
  -12.7402
  -11.7402
  -12.7402
  -15.7402
  -15.7402
  -13.7402
  -12.7402
  -12.7402
  -15.7402
  -17.7402
  -15.7402
  -15.7402
  -16.7402
  -15.7402
  -17.7402
  -20.7402
  -18.7402
  -17.7402
  -14.7402
  -17.7402
  -17.7402
  -18.7402
  -18.7402
  -17.7402
  -16.7402
  -16.7402
  -17.7402
  -19.7402
  -16.7402
  -15.7402
  -13.7402
  -13.7402
  -14.7402
  -16.7402
  -15.7402
  -12.7402
  -12.7402
  -12.7402
  -13.7402
  -15.7402
  -12.7402
  -16.7402
  -13.7402
  -12.7402
  -14.7402
  -16.7402
  -16.7402
  -15.7402
  -13.7402
  -13.7402
  -15.7402
  -17.7402
  -16.7402
  -15.7402
  -13.7402
  -14.7402
  -15.7402
  -16.7402
  -14.7402
  -14.7402
  -12.7402
  -12.7402
  -11.7402
  -16.7402
  -11.7402
  -11.7402
  -10.7402
  -13.7402
  -14.7402
  -18.7402
  -16.7402
  -13.7402
  -13.7402
  -12.7402
  -15.7402
  -16.7402
  -16.7402
  -16.7402
  -16.7402
  -13.7402
  -15.7402
  -17.7402
  -14.7402
  -12.7402
  -13.7402
  -13.7402
  -16.7402
  -19.7402
  -13.7402
  -12.7402
  -10.7402
  -13.7402
  -15.7402
  -14.7402
  -12.7402
  -10.7402
   -7.7402
   -7.7402
   -4.7402
   -4.7402
   -1.7402
   -0.7402
    2.2598
    4.2598
    4.2598
    2.2598
    5.2598
    7.2598
    5.2598
    5.2598
    5.2598
    3.2598
    3.2598
    5.2598
    6.2598
    5.2598
    4.2598
    3.2598
    3.2598
    5.2598
    5.2598
    4.2598
    3.2598
    1.2598
    2.2598
    4.2598
    5.2598
    4.2598
    4.2598
    2.2598
    4.2598
    5.2598
    6.2598
    5.2598
    3.2598
   -0.7402
    0.2598
    4.2598
    7.2598
    7.2598
    6.2598
    4.2598
    4.2598
    7.2598
    8.2598
    8.2598
    8.2598
    5.2598
    8.2598
   12.2598
   14.2598
   14.2598
   11.2598
   11.2598
   12.2598
   18.2598
   17.2598
   12.2598
   10.2598
   15.2598
   20.2598
   19.2598
   17.2598
   15.2598
   13.2598
   13.2598
   12.2598
   11.2598
    7.2598
    4.2598
   -1.7402
   -2.7402
   -2.7402
   -0.7402
   -4.7402
     -6.7402
   -7.7402
  -10.7402
  -11.7402
  -10.7402
   -8.7402
   -9.7402
  -13.7402
  -15.7402
  -13.7402
  -12.7402
  -11.7402
  -11.7402
  -12.7402
  -14.7402
  -10.7402
   -8.7402
   -9.7402
   -9.7402
   -8.7402
  -11.7402
   -8.7402
   -8.7402
   -6.7402
   -9.7402
   -8.7402
  -13.7402
  -11.7402
  -13.7402
  -18.7402
  -24.7402
  -33.7402
  -42.7402
  -42.7402
  -48.7402
  -52.7402
  -46.7402
  -27.7402
    0.2598
   33.2598
   66.2598
  113.2598
  163.2598
  208.2598
  230.2598
  236.2598
  208.2598
  141.2598
   56.2598
   -5.7402
  -34.7402
  -32.7402
  -21.7402
  -13.7402
  -11.7402
  -15.7402
  -18.7402
  -14.7402
  -16.7402
  -13.7402
  -15.7402
  -17.7402
  -19.7402
  -16.7402
  -14.7402
  -15.7402
  -15.7402
  -17.7402
  -18.7402
  -19.7402
  -18.7402
  -16.7402
  -16.7402
  -17.7402
  -18.7402
  -16.7402
  -15.7402
  -16.7402
  -15.7402
  -20.7402
  -22.7402
  -19.7402
  -20.7402
  -16.7402
  -16.7402
  -16.7402
  -18.7402
  -18.7402
  -16.7402
  -13.7402
  -14.7402
  -17.7402
  -18.7402
  -16.7402
  -18.7402
  -16.7402
  -17.7402
  -20.7402
  -21.7402
  -19.7402
  -15.7402
  -15.7402
  -14.7402
  -18.7402
  -18.7402
  -17.7402
  -16.7402
  -14.7402
  -13.7402
  -17.7402
  -17.7402
  -15.7402
  -14.7402
  -13.7402
  -15.7402
  -16.7402
  -18.7402
  -18.7402
  -15.7402
  -14.7402
  -17.7402
  -16.7402
  -18.7402
  -17.7402
  -15.7402
  -14.7402
  -15.7402
  -17.7402
  -19.7402
  -18.7402
  -16.7402
  -14.7402
  -14.7402
  -15.7402
  -19.7402
  -17.7402
  -18.7402
  -16.7402
  -18.7402
  -19.7402
  -23.7402
  -22.7402
  -19.7402
  -18.7402
  -19.7402
  -19.7402
  -21.7402
  -18.7402
  -16.7402
  -14.7402
  -15.7402
  -17.7402
  -19.7402
  -16.7402
  -12.7402
  -12.7402
  -12.7402
  -15.7402
  -12.7402
   -9.7402
   -7.7402
   -6.7402
   -5.7402
   -6.7402
   -9.7402
   -5.7402
   -3.7402
   -0.7402
    0.2598
    0.2598
   -2.7402
   -1.7402
   -0.7402
    0.2598
    0.2598
   -4.7402
   -3.7402
   -7.7402
   -3.7402
   -1.7402
   -1.7402
    0.2598
   -0.7402
   -0.7402
    1.2598
    0.2598
    0.2598
   -1.7402
   -2.7402
   -3.7402
   -1.7402
    0.2598
   -1.7402
   -3.7402
   -3.7402
   -4.7402
   -1.7402
   -1.7402
   -0.7402
   -4.7402
   -6.7402
   -5.7402
   -4.7402
   -7.7402
   -9.7402
  -11.7402
  -12.7402
   -7.7402
   -6.7402
   -6.7402
   -7.7402
  -10.7402
  -11.7402
  -10.7402
  -10.7402
   -7.7402
   -9.7402
  -11.7402
   -8.7402
  -10.7402
   -8.7402
   -6.7402
   -7.7402
   -9.7402
  -12.7402
   -8.7402
   -8.7402
   -8.7402
   -7.7402
   -8.7402
   -9.7402
  -10.7402
   -7.7402
   -9.7402
   -8.7402
  -10.7402
  -12.7402
   -9.7402
   -9.7402
   -8.7402
   -9.7402
  -10.7402
  -16.7402
  -15.7402
  -10.7402
  -10.7402
  -12.7402
  -12.7402
  -16.7402
  -13.7402
  -12.7402
   -8.7402
   -6.7402
   -7.7402
  -10.7402
  -10.7402
   -8.7402
   -8.7402
   -5.7402
  -10.7402
  -11.7402
  -11.7402
  -10.7402
  -10.7402
  -11.7402
  -13.7402
  -15.7402
  -15.7402
  -11.7402
  -12.7402
  -13.7402
  -12.7402
  -13.7402
  -11.7402
   -9.7402
   -9.7402
  -10.7402
  -11.7402
  -12.7402
  -10.7402
   -8.7402
   -6.7402
   -7.7402
   -6.7402
   -8.7402
   -7.7402
   -8.7402
  -10.7402
   -8.7402
  -10.7402
  -12.7402
  -10.7402
  -10.7402
   -9.7402
  -10.7402
  -13.7402
  -13.7402
  -12.7402
   -8.7402
   -9.7402
  -10.7402
  -11.7402
  -13.7402
  -12.7402
  -11.7402
  -10.7402
   -9.7402
  -10.7402
  -10.7402
   -8.7402
   -6.7402
   -7.7402
   -7.7402
   -9.7402
  -10.7402
  -10.7402
  -11.7402
   -7.7402
   -9.7402
   -8.7402
  -10.7402
   -9.7402
  -10.7402
   -7.7402
   -5.7402
   -4.7402
   -4.7402
   -0.7402
    0.2598
    1.2598
    0.2598
    2.2598
    0.2598
    4.2598
    6.2598
    8.2598
   10.2598
   10.2598
    9.2598
    8.2598
   10.2598
   10.2598
    9.2598
    5.2598
    3.2598
    5.2598
    7.2598
   10.2598
    6.2598
    3.2598
   -2.7402
    1.2598
    2.2598
    7.2598
    8.2598
    7.2598
    4.2598
    1.2598
   -0.7402
   -1.7402
   -2.7402
   -8.7402
  -12.7402
  -11.7402
  -11.7402
  -11.7402
  -12.7402
  -12.7402
  -12.7402
  -14.7402
  -10.7402
  -13.7402
  -13.7402
  -18.7402
  -22.7402
  -19.7402
  -18.7402
  -15.7402
  -14.7402
  -18.7402
  -21.7402
  -19.7402
  -17.7402
  -17.7402
  -17.7402
  -20.7402
  -24.7402
  -26.7402
  -29.7402
  -36.7402
  -35.7402
  -42.7402
  -52.7402
  -53.7402
  -43.7402
  -22.7402
    0.2598
   23.2598
   57.2598
  105.2598
  158.2598
  204.2598
  230.2598
  238.2598
  219.2598
  173.2598
  106.2598
   47.2598
    4.2598
  -23.7402
  -38.7402
  -48.7402
  -45.7402
  -38.7402
  -31.7402
  -28.7402
  -28.7402
  -25.7402
  -22.7402
  -20.7402
  -20.7402
  -21.7402
  -22.7402
  -23.7402
  -22.7402
  -24.7402
  -24.7402
  -26.7402
  -28.7402
  -28.7402
  -24.7402
  -24.7402
  -24.7402
  -27.7402
  -27.7402
  -26.7402
  -23.7402
  -24.7402
  -24.7402
  -23.7402
  -27.7402
  -27.7402
  -24.7402
  -25.7402
  -25.7402
  -27.7402
  -27.7402
  -25.7402
  -24.7402
  -23.7402
  -24.7402
  -24.7402
  -26.7402
  -22.7402
  -24.7402
  -23.7402
  -24.7402
  -26.7402
  -26.7402
  -24.7402
  -24.7402
  -21.7402
  -23.7402
  -24.7402
  -29.7402
  -27.7402
  -27.7402
  -24.7402
  -24.7402
  -26.7402
  -26.7402
  -25.7402
  -24.7402
  -21.7402
  -21.7402
  -23.7402
  -23.7402
  -22.7402
  -19.7402
  -19.7402
  -21.7402
  -21.7402
  -23.7402
  -24.7402
  -19.7402
  -19.7402
  -19.7402
  -19.7402
  -24.7402
  -21.7402
  -20.7402
  -21.7402
  -24.7402
  -27.7402
  -31.7402
  -30.7402
  -28.7402
  -29.7402
  -30.7402
  -31.7402
  -35.7402
  -37.7402
  -33.7402
  -36.7402
  -38.7402
  -37.7402
  -41.7402
  -38.7402
  -35.7402
  -36.7402
  -35.7402
  -38.7402
  -38.7402
  -36.7402
  -34.7402
  -30.7402
  -30.7402
  -32.7402
  -31.7402
  -26.7402
  -24.7402
  -23.7402
  -20.7402
  -20.7402
  -18.7402
  -16.7402
  -14.7402
   -9.7402
   -8.7402
   -9.7402
   -8.7402
   -6.7402
   -4.7402
   -3.7402
    0.2598
   -2.7402
   -1.7402
    0.2598
    1.2598
    0.2598
    0.2598
   -0.7402
   -4.7402
   -0.7402
   -1.7402
   -1.7402
   -2.7402
   -3.7402
   -3.7402
   -3.7402
   -0.7402
   -0.7402
   -1.7402
   -3.7402
   -4.7402
   -3.7402
   -3.7402
   -1.7402
   -2.7402
   -4.7402
   -5.7402
   -4.7402
   -1.7402
   -2.7402
   -2.7402
   -5.7402
   -5.7402
   -3.7402
   -3.7402
   -2.7402
   -2.7402
   -3.7402
   -8.7402
   -7.7402
   -7.7402
   -5.7402
   -7.7402
   -9.7402
   -9.7402
   -9.7402
   -7.7402
   -5.7402
   -5.7402
   -7.7402
   -9.7402
   -6.7402
   -5.7402
   -4.7402
   -5.7402
   -7.7402
   -8.7402
   -8.7402
   -6.7402
   -5.7402
   -4.7402
  -10.7402
   -9.7402
   -7.7402
   -5.7402
   -7.7402
   -8.7402
  -10.7402
  -14.7402
  -12.7402
   -7.7402
   -7.7402
   -8.7402
   -9.7402
  -11.7402
  -10.7402
   -7.7402
   -7.7402
   -8.7402
  -10.7402
  -10.7402
   -8.7402
   -9.7402
   -6.7402
   -7.7402
   -9.7402
   -9.7402
   -9.7402
   -6.7402
   -6.7402
   -7.7402
  -11.7402
  -12.7402
   -8.7402
   -4.7402
   -2.7402
   -1.7402
    2.2598
    0.2598
    2.2598
    1.2598
    4.2598
    6.2598
    9.2598
    6.2598
    8.2598
    9.2598
   11.2598
   12.2598
   10.2598
    8.2598
    9.2598
    9.2598
   11.2598
    9.2598
    5.2598
    5.2598
    6.2598
    4.2598
    5.2598
   10.2598
   12.2598
   12.2598
    9.2598
    4.2598
    3.2598
    1.2598
   -2.7402
   -5.7402
   -9.7402
   -8.7402
   -9.7402
   -9.7402
  -13.7402
  -15.7402
  -14.7402
  -10.7402
   -8.7402
  -10.7402
  -11.7402
  -12.7402
  -12.7402
  -11.7402
  -10.7402
  -11.7402
  -12.7402
  -15.7402
  -15.7402
  -11.7402
  -10.7402
  -14.7402
  -15.7402
  -17.7402
  -17.7402
  -15.7402
  -14.7402
  -17.7402
  -23.7402
  -31.7402
  -38.7402
  -41.7402
  -44.7402
  -50.7402
  -55.7402
  -44.7402
  -20.7402
   10.2598
   40.2598
   82.2598
  132.2598
  181.2598
  223.2598
  239.2598
  227.2598
  177.2598
   98.2598
   20.2598
  -28.7402
  -43.7402
  -37.7402
  -31.7402
  -25.7402
  -21.7402
  -21.7402
  -21.7402
  -18.7402
  -17.7402
  -19.7402
  -23.7402
  -25.7402
  -21.7402
  -21.7402
  -21.7402
  -21.7402
  -24.7402
  -22.7402
  -20.7402
  -19.7402
  -22.7402
  -20.7402
  -22.7402
  -18.7402
  -17.7402
  -15.7402
  -18.7402
  -18.7402
  -18.7402
  -18.7402
  -17.7402
  -18.7402
  -18.7402
  -18.7402
  -20.7402
  -17.7402
  -20.7402
  -18.7402
  -17.7402
  -19.7402
  -20.7402
  -21.7402
  -19.7402
  -18.7402
  -17.7402
  -19.7402
  -21.7402
  -19.7402
  -21.7402
  -20.7402
  -19.7402
  -19.7402
  -20.7402
  -19.7402
  -18.7402
  -17.7402
  -19.7402
  -19.7402
  -18.7402
  -17.7402
  -16.7402
  -17.7402
  -16.7402
  -17.7402
  -22.7402
  -21.7402
  -19.7402
  -18.7402
  -18.7402
  -21.7402
  -22.7402
  -20.7402
  -17.7402
  -18.7402
  -19.7402
  -21.7402
  -25.7402
  -21.7402
  -21.7402
  -18.7402
  -19.7402
  -22.7402
  -24.7402
  -23.7402
  -20.7402
  -20.7402
  -19.7402
  -21.7402
  -23.7402
  -23.7402
  -22.7402
  -20.7402
  -20.7402
  -22.7402
  -24.7402
  -23.7402
  -22.7402
  -19.7402
  -21.7402
  -20.7402
  -20.7402
  -15.7402
  -12.7402
  -10.7402
   -8.7402
   -8.7402
   -8.7402
   -5.7402
   -2.7402
    0.2598
   -1.7402
   -1.7402
   -2.7402
    0.2598
    0.2598
    2.2598
    3.2598
    2.2598
    2.2598
    4.2598
    4.2598
    7.2598
    5.2598
    5.2598
    2.2598
    5.2598
    4.2598
    6.2598
    4.2598
    2.2598
    0.2598
    2.2598
    4.2598
    4.2598
    3.2598
    1.2598
   -0.7402
    2.2598
    1.2598
    3.2598
    4.2598
    0.2598
   -0.7402
    1.2598
    2.2598
    0.2598
    1.2598
    0.2598
   -2.7402
   -2.7402
   -0.7402
    1.2598
   -0.7402
   -2.7402
   -6.7402
   -4.7402
   -0.7402
   -1.7402
   -3.7402
   -3.7402
   -7.7402
   -4.7402
   -2.7402
   -2.7402
   -5.7402
   -5.7402
   -9.7402
   -6.7402
   -2.7402
   -1.7402
   -4.7402
   -6.7402
   -6.7402
   -8.7402
   -4.7402
   -4.7402
   -6.7402
   -8.7402
   -9.7402
   -7.7402
   -5.7402
   -5.7402
   -6.7402
   -6.7402
   -7.7402
   -5.7402
   -5.7402
   -3.7402
   -3.7402
   -5.7402
   -6.7402
   -6.7402
   -2.7402
   -1.7402
   -2.7402
   -5.7402
   -5.7402
   -2.7402
   -3.7402
   -1.7402
   -2.7402
   -2.7402
   -7.7402
   -5.7402
   -2.7402
   -0.7402
   -2.7402
   -2.7402
   -6.7402
   -4.7402
   -2.7402
   -0.7402
   -0.7402
   -0.7402
    2.2598
    5.2598
   10.2598
   11.2598
   11.2598
   10.2598
    9.2598
   13.2598
   17.2598
   15.2598
   15.2598
   18.2598
   17.2598
   16.2598
   15.2598
   15.2598
   14.2598
   12.2598
   10.2598
   13.2598
   14.2598
   12.2598
   14.2598
   15.2598
   17.2598
   22.2598
   17.2598
   12.2598
    9.2598
    7.2598
    3.2598
    1.2598
    0.2598
    0.2598
   -2.7402
   -4.7402
   -8.7402
   -8.7402
   -5.7402
   -5.7402
   -5.7402
   -6.7402
   -8.7402
   -8.7402
   -7.7402
   -5.7402
   -7.7402
   -9.7402
  -12.7402
   -8.7402
   -7.7402
   -5.7402
   -5.7402
   -5.7402
   -9.7402
   -9.7402
   -7.7402
   -9.7402
  -17.7402
  -28.7402
  -34.7402
  -39.7402
  -43.7402
  -47.7402
  -38.7402
  -17.7402
   10.2598
   47.2598
   90.2598
  146.2598
  198.2598
  236.2598
  246.2598
  220.2598
  155.2598
   65.2598
   -3.7402
  -32.7402
  -35.7402
  -20.7402
  -11.7402
   -9.7402
  -11.7402
  -14.7402
  -15.7402
  -14.7402
  -12.7402
  -12.7402
  -13.7402
  -15.7402
  -17.7402
  -15.7402
  -14.7402
  -15.7402
  -13.7402
  -16.7402
  -19.7402
  -19.7402
  -16.7402
  -15.7402
  -15.7402
  -16.7402
  -20.7402
  -18.7402
  -16.7402
  -15.7402
  -15.7402
  -17.7402
  -16.7402
  -17.7402
  -14.7402
  -13.7402
  -14.7402
  -15.7402
  -18.7402
  -15.7402
  -14.7402
  -13.7402
  -14.7402
  -17.7402
  -17.7402
  -15.7402
  -13.7402
  -12.7402
  -11.7402
  -15.7402
  -17.7402
  -15.7402
  -15.7402
  -12.7402
  -13.7402
  -12.7402
  -13.7402
  -13.7402
  -12.7402
   -9.7402
  -11.7402
  -14.7402
  -13.7402
  -12.7402
  -14.7402
  -11.7402
  -12.7402
  -13.7402
  -16.7402
  -14.7402
  -13.7402
  -14.7402
  -12.7402
  -13.7402
  -14.7402
  -15.7402
  -15.7402
  -12.7402
  -13.7402
  -13.7402
  -14.7402
  -14.7402
  -14.7402
  -14.7402
  -13.7402
  -16.7402
  -17.7402
  -15.7402
  -15.7402
  -13.7402
  -13.7402
  -15.7402
  -15.7402
  -16.7402
  -12.7402
  -11.7402
  -11.7402
  -13.7402
  -15.7402
   -8.7402
   -7.7402
   -3.7402
   -3.7402
   -4.7402
   -3.7402
   -3.7402
   -1.7402
   -1.7402
   -1.7402
    1.2598
    1.2598
    4.2598
    7.2598
    8.2598
    9.2598
    6.2598
    4.2598
    8.2598
   10.2598
   11.2598
    7.2598
    5.2598
    4.2598
    4.2598
    5.2598
    7.2598
    7.2598
    7.2598
    4.2598
    5.2598
    6.2598
    7.2598
    8.2598
    6.2598
    3.2598
    4.2598
    4.2598
    6.2598
    7.2598
    5.2598
    2.2598
    5.2598
    7.2598
    7.2598
    6.2598
    4.2598
    1.2598
    2.2598
    3.2598
    2.2598
    1.2598
    3.2598
    0.2598
    2.2598
    3.2598
    2.2598
    3.2598
   -0.7402
   -2.7402
   -1.7402
   -1.7402
    1.2598
    0.2598
   -1.7402
   -4.7402
   -2.7402
    0.2598
   -1.7402
    0.2598
   -1.7402
   -3.7402
   -0.7402
    2.2598
    1.2598
    0.2598
   -0.7402
   -3.7402
   -1.7402
   -1.7402
    0.2598
    0.2598
   -3.7402
   -2.7402
   -2.7402
   -0.7402
    0.2598
   -2.7402
   -2.7402
   -2.7402
   -0.7402
    0.2598
    3.2598
    4.2598
    3.2598
    0.2598
   -0.7402
    1.2598
    1.2598
   -0.7402
   -1.7402
   -1.7402
   -0.7402
    2.2598
    1.2598
    2.2598
   -1.7402
   -0.7402
    3.2598
    8.2598
   13.2598
   10.2598
   13.2598
   11.2598
   16.2598
   16.2598
   18.2598
   19.2598
   21.2598
   22.2598
   22.2598
   25.2598
   26.2598
   25.2598
   20.2598
   18.2598
   19.2598
   19.2598
   19.2598
   19.2598
   18.2598
   16.2598
   19.2598
   25.2598
   27.2598
   24.2598
   13.2598
   10.2598
   10.2598
    7.2598
    6.2598
    4.2598
    1.2598
    1.2598
   -1.7402
    0.2598
    1.2598
    2.2598
    1.2598
   -1.7402
   -0.7402
   -0.7402
    1.2598
    1.2598
    0.2598
   -1.7402
   -3.7402
   -2.7402
   -2.7402
   -2.7402
   -3.7402
   -6.7402
   -5.7402
   -3.7402
   -1.7402
   -2.7402
   -7.7402
  -12.7402
  -17.7402
  -23.7402
  -27.7402
  -31.7402
  -40.7402
  -44.7402
  -35.7402
  -12.7402
   14.2598
   43.2598
   82.2598
  136.2598
  192.2598
  225.2598
  234.2598
  208.2598
  151.2598
   73.2598
    7.2598
  -24.7402
  -30.7402
  -21.7402
  -15.7402
  -11.7402
   -9.7402
   -9.7402
   -7.7402
   -8.7402
   -8.7402
  -10.7402
   -7.7402
   -6.7402
   -6.7402
   -5.7402
   -5.7402
   -9.7402
   -7.7402
   -6.7402
   -5.7402
   -6.7402
   -8.7402
  -11.7402
  -10.7402
  -11.7402
   -8.7402
   -7.7402
  -11.7402
  -10.7402
   -8.7402
   -9.7402
   -8.7402
   -9.7402
   -8.7402
  -10.7402
   -5.7402
   -5.7402
   -4.7402
   -6.7402
   -8.7402
   -8.7402
   -7.7402
   -5.7402
   -7.7402
   -9.7402
   -9.7402
  -12.7402
   -9.7402
   -8.7402
   -7.7402
  -11.7402
  -11.7402
  -12.7402
  -11.7402
   -9.7402
   -7.7402
   -7.7402
   -7.7402
   -6.7402
   -5.7402
   -3.7402
   -5.7402
   -7.7402
   -8.7402
   -8.7402
   -9.7402
   -9.7402
  -10.7402
   -8.7402
  -10.7402
  -11.7402
   -7.7402
   -7.7402
   -4.7402
   -8.7402
   -7.7402
   -9.7402
   -8.7402
   -6.7402
   -5.7402
   -8.7402
  -11.7402
  -14.7402
  -15.7402
   -9.7402
  -10.7402
   -9.7402
  -12.7402
  -15.7402
  -12.7402
  -12.7402
   -8.7402
   -7.7402
  -11.7402
  -11.7402
  -10.7402
   -7.7402
   -4.7402
   -4.7402
   -4.7402
   -5.7402
   -1.7402
   -0.7402
    4.2598
    3.2598
    3.2598
    1.2598
    5.2598
    6.2598
    9.2598
    9.2598
    7.2598
    8.2598
   10.2598
   11.2598
   12.2598
   12.2598
   10.2598
    8.2598
    9.2598
   10.2598
   13.2598
   11.2598
   10.2598
    6.2598
    6.2598
    8.2598
    7.2598
    6.2598
    5.2598
    3.2598
    5.2598
    6.2598
    7.2598
    7.2598
    5.2598
    3.2598
    5.2598
    4.2598
    6.2598
    3.2598
    5.2598
    3.2598
    5.2598
    4.2598
    6.2598
    5.2598
    2.2598
    0.2598
    1.2598
    1.2598
    0.2598
   -1.7402
   -2.7402
   -0.7402
   -0.7402
    1.2598
   -0.7402
   -0.7402
   -2.7402
   -3.7402
   -0.7402
   -2.7402
   -0.7402
   -0.7402
   -1.7402
   -3.7402
   -1.7402
    0.2598
   -1.7402
   -0.7402
   -2.7402
   -3.7402
   -3.7402
   -2.7402
    0.2598
    0.2598
    1.2598
   -1.7402
    1.2598
   -0.7402
   -1.7402
    0.2598
   -0.7402
   -2.7402
   -0.7402
    1.2598
    2.2598
    1.2598
   -1.7402
   -3.7402
   -3.7402
    0.2598
   -0.7402
    3.2598
   -1.7402
   -3.7402
   -2.7402
    3.2598
    5.2598
    9.2598
    9.2598
    8.2598
    9.2598
   11.2598
   15.2598
   17.2598
   17.2598
   14.2598
   17.2598
   20.2598
   20.2598
   19.2598
   19.2598
   15.2598
   13.2598
   15.2598
   16.2598
   14.2598
   11.2598
    8.2598
    9.2598
   12.2598
   18.2598
   18.2598
   12.2598
    5.2598
    6.2598
    6.2598
    2.2598
   -0.7402
   -3.7402
   -6.7402
   -6.7402
   -3.7402
   -1.7402
   -0.7402
   -1.7402
   -4.7402
   -4.7402
   -3.7402
   -3.7402
   -5.7402
   -7.7402
   -8.7402
   -8.7402
   -8.7402
   -7.7402
   -8.7402
  -11.7402
  -10.7402
   -8.7402
   -9.7402
   -7.7402
   -7.7402
   -8.7402
  -11.7402
  -14.7402
  -19.7402
  -23.7402
  -26.7402
  -32.7402
  -42.7402
  -46.7402
  -36.7402
  -16.7402
    9.2598
   38.2598
   78.2598
  133.2598
  184.2598
  217.2598
  228.2598
  205.2598
  143.2598
   67.2598
   10.2598
  -21.7402
  -32.7402
  -31.7402
  -25.7402
  -17.7402
  -13.7402
  -12.7402
  -13.7402
  -13.7402
  -16.7402
  -18.7402
  -14.7402
  -15.7402
  -15.7402
  -15.7402
  -15.7402
  -12.7402
  -12.7402
  -10.7402
  -14.7402
  -14.7402
  -15.7402
  -12.7402
  -12.7402
  -11.7402
  -13.7402
  -15.7402
  -16.7402
  -16.7402
  -15.7402
  -15.7402
  -17.7402
  -16.7402
  -18.7402
  -19.7402
  -16.7402
  -17.7402
  -16.7402
  -19.7402
  -19.7402
  -18.7402
  -13.7402
  -14.7402
  -16.7402
  -17.7402
  -17.7402
  -16.7402
  -16.7402
  -15.7402
  -19.7402
  -18.7402
  -19.7402
  -17.7402
  -16.7402
  -17.7402
  -16.7402
  -18.7402
  -19.7402
  -19.7402
  -16.7402
  -16.7402
  -17.7402
  -18.7402
  -18.7402
  -17.7402
  -14.7402
  -12.7402
  -14.7402
  -15.7402
  -17.7402
  -16.7402
  -14.7402
  -14.7402
  -15.7402
  -16.7402
  -16.7402
  -18.7402
  -18.7402
  -19.7402
  -21.7402
  -22.7402
  -24.7402
  -24.7402
  -23.7402
  -22.7402
  -24.7402
  -27.7402
  -31.7402
  -29.7402
  -26.7402
  -23.7402
  -25.7402
  -28.7402
  -26.7402
  -27.7402
  -23.7402
  -23.7402
  -23.7402
  -24.7402
  -24.7402
  -21.7402
  -21.7402
  -15.7402
  -13.7402
  -15.7402
  -12.7402
  -10.7402
   -8.7402
   -5.7402
   -5.7402
   -3.7402
   -2.7402
   -3.7402
    0.2598
    2.2598
    1.2598
    3.2598
    2.2598
    3.2598
    3.2598
    4.2598
    4.2598
    4.2598
    3.2598
    3.2598
    4.2598
    7.2598
    7.2598
    5.2598
    3.2598
    4.2598
    6.2598
    6.2598
    6.2598
    3.2598
    0.2598
    0.2598
    1.2598
    5.2598
    3.2598
    0.2598
   -1.7402
   -0.7402
    2.2598
    3.2598
    1.2598
    0.2598
    0.2598
   -0.7402
    1.2598
    2.2598
    0.2598
    0.2598
   -1.7402
   -0.7402
   -0.7402
    2.2598
    1.2598
    0.2598
   -0.7402
    0.2598
    0.2598
    2.2598
    1.2598
   -1.7402
   -3.7402
   -2.7402
   -2.7402
   -1.7402
   -0.7402
   -3.7402
   -5.7402
   -4.7402
   -2.7402
   -2.7402
   -0.7402
   -4.7402
   -4.7402
   -3.7402
   -0.7402
    0.2598
    0.2598
   -2.7402
   -4.7402
   -3.7402
    1.2598
   -0.7402
    0.2598
   -1.7402
   -4.7402
   -4.7402
   -4.7402
   -2.7402
   -3.7402
   -3.7402
   -5.7402
   -3.7402
   -1.7402
   -0.7402
   -1.7402
   -2.7402
   -3.7402
   -1.7402
   -0.7402
    0.2598
   -0.7402
   -1.7402
   -2.7402
   -1.7402
   -0.7402
    2.2598
    2.2598
    0.2598
   -0.7402
    1.2598
    5.2598
    6.2598
    8.2598
    6.2598
    6.2598
    9.2598
   13.2598
   13.2598
   14.2598
   13.2598
   14.2598
   16.2598
   18.2598
   20.2598
   20.2598
   19.2598
   18.2598
   17.2598
   17.2598
   18.2598
   17.2598
   17.2598
   15.2598
   15.2598
   13.2598
   19.2598
   17.2598
   15.2598
   10.2598
   14.2598
   19.2598
   23.2598
   20.2598
   16.2598
    9.2598
    6.2598
    5.2598
    4.2598
    0.2598
   -2.7402
   -1.7402
   -5.7402
   -3.7402
   -5.7402
   -2.7402
   -3.7402
   -2.7402
   -3.7402
   -3.7402
   -0.7402
    0.2598
   -2.7402
   -2.7402
   -4.7402
   -2.7402
   -2.7402
   -4.7402
   -4.7402
  -10.7402
   -9.7402
   -4.7402
   -3.7402
   -3.7402
   -5.7402
   -8.7402
   -6.7402
   -7.7402
   -9.7402
  -15.7402
  -23.7402
  -28.7402
  -32.7402
  -35.7402
  -40.7402
  -41.7402
  -29.7402
   -3.7402
   28.2598
   63.2598
  111.2598
  164.2598
  209.2598
  238.2598
  248.2598
  228.2598
  166.2598
   85.2598
   15.2598
  -23.7402
  -29.7402
  -22.7402
  -14.7402
  -10.7402
  -11.7402
  -13.7402
  -14.7402
   -9.7402
   -9.7402
  -12.7402
  -13.7402
  -15.7402
  -14.7402
  -11.7402
  -12.7402
  -12.7402
  -11.7402
  -14.7402
  -12.7402
  -13.7402
  -11.7402
  -12.7402
  -14.7402
  -13.7402
  -11.7402
  -10.7402
  -10.7402
   -9.7402
   -9.7402
  -12.7402
  -11.7402
   -9.7402
   -8.7402
   -8.7402
   -8.7402
  -10.7402
  -10.7402
  -10.7402
   -8.7402
   -9.7402
  -11.7402
  -12.7402
  -10.7402
   -8.7402
   -9.7402
   -8.7402
   -9.7402
  -12.7402
  -13.7402
  -10.7402
   -8.7402
   -7.7402
   -8.7402
  -12.7402
  -12.7402
   -9.7402
   -8.7402
   -7.7402
  -10.7402
  -12.7402
  -11.7402
  -10.7402
   -8.7402
   -9.7402
  -11.7402
  -11.7402
  -12.7402
  -11.7402
   -8.7402
   -8.7402
  -10.7402
  -10.7402
   -9.7402
   -7.7402
   -8.7402
   -7.7402
   -9.7402
  -12.7402
  -11.7402
   -9.7402
  -10.7402
  -11.7402
  -11.7402
  -14.7402
  -15.7402
  -13.7402
  -12.7402
  -13.7402
  -15.7402
  -17.7402
  -13.7402
  -15.7402
  -14.7402
  -12.7402
  -15.7402
  -15.7402
  -14.7402
  -12.7402
  -10.7402
   -8.7402
   -5.7402
   -4.7402
   -1.7402
    2.2598
    3.2598
    3.2598
    4.2598
    3.2598
    5.2598
    5.2598
    9.2598
   10.2598
    7.2598
    6.2598
    9.2598
   11.2598
   12.2598
   11.2598
    9.2598
    8.2598
   12.2598
   14.2598
   12.2598
   13.2598
   11.2598
    8.2598
   11.2598
   11.2598
   11.2598
   11.2598
   10.2598
